# freq, I_pwr, V_pwr, I_th, V_th
1.0000e+01 1.8856e+01 6.1999e+00 9.8774e-01 0.0000e+00
1.0090e+01 1.9045e+01 6.4005e+00 1.0056e+00 0.0000e+00
1.0180e+01 1.9227e+01 6.5959e+00 1.0237e+00 0.0000e+00
1.0270e+01 1.9402e+01 6.7858e+00 1.0419e+00 0.0000e+00
1.0360e+01 1.9568e+01 6.9699e+00 1.0602e+00 0.0000e+00
1.0450e+01 1.9727e+01 7.1479e+00 1.0787e+00 0.0000e+00
1.0541e+01 1.9878e+01 7.3198e+00 1.0974e+00 0.0000e+00
1.0631e+01 2.0020e+01 7.4853e+00 1.1163e+00 0.0000e+00
1.0721e+01 2.0155e+01 7.6444e+00 1.1353e+00 0.0000e+00
1.0811e+01 2.0281e+01 7.7969e+00 1.1544e+00 0.0000e+00
1.0901e+01 2.0400e+01 7.9428e+00 1.1737e+00 0.0000e+00
1.0991e+01 2.0510e+01 8.0821e+00 1.1932e+00 0.0000e+00
1.1081e+01 2.0613e+01 8.2147e+00 1.2129e+00 0.0000e+00
1.1171e+01 2.0708e+01 8.3407e+00 1.2327e+00 0.0000e+00
1.1261e+01 2.0795e+01 8.4601e+00 1.2526e+00 0.0000e+00
1.1351e+01 2.0874e+01 8.5730e+00 1.2727e+00 0.0000e+00
1.1441e+01 2.0946e+01 8.6795e+00 1.2930e+00 0.0000e+00
1.1532e+01 2.1011e+01 8.7795e+00 1.3135e+00 0.0000e+00
1.1622e+01 2.1069e+01 8.8733e+00 1.3341e+00 0.0000e+00
1.1712e+01 2.1120e+01 8.9610e+00 1.3548e+00 0.0000e+00
1.1802e+01 2.1164e+01 9.0426e+00 1.3758e+00 0.0000e+00
1.1892e+01 2.1201e+01 9.1184e+00 1.3968e+00 0.0000e+00
1.1982e+01 2.1232e+01 9.1884e+00 1.4181e+00 0.0000e+00
1.2072e+01 2.1257e+01 9.2528e+00 1.4395e+00 0.0000e+00
1.2162e+01 2.1276e+01 9.3118e+00 1.4611e+00 0.0000e+00
1.2252e+01 2.1289e+01 9.3655e+00 1.4828e+00 0.0000e+00
1.2342e+01 2.1296e+01 9.4141e+00 1.5047e+00 0.0000e+00
1.2432e+01 2.1298e+01 9.4577e+00 1.5267e+00 0.0000e+00
1.2523e+01 2.1295e+01 9.4966e+00 1.5489e+00 0.0000e+00
1.2613e+01 2.1287e+01 9.5308e+00 1.5713e+00 0.0000e+00
1.2703e+01 2.1275e+01 9.5606e+00 1.5938e+00 0.0000e+00
1.2793e+01 2.1257e+01 9.5861e+00 1.6165e+00 0.0000e+00
1.2883e+01 2.1235e+01 9.6074e+00 1.6393e+00 0.0000e+00
1.2973e+01 2.1209e+01 9.6248e+00 1.6624e+00 0.0000e+00
1.3063e+01 2.1179e+01 9.6384e+00 1.6855e+00 0.0000e+00
1.3153e+01 2.1146e+01 9.6484e+00 1.7089e+00 0.0000e+00
1.3243e+01 2.1108e+01 9.6548e+00 1.7323e+00 0.0000e+00
1.3333e+01 2.1067e+01 9.6579e+00 1.7560e+00 0.0000e+00
1.3423e+01 2.1023e+01 9.6578e+00 1.7798e+00 0.0000e+00
1.3514e+01 2.0976e+01 9.6547e+00 1.8038e+00 0.0000e+00
1.3604e+01 2.0925e+01 9.6486e+00 1.8279e+00 0.0000e+00
1.3694e+01 2.0872e+01 9.6398e+00 1.8522e+00 0.0000e+00
1.3784e+01 2.0816e+01 9.6283e+00 1.8766e+00 0.0000e+00
1.3874e+01 2.0758e+01 9.6143e+00 1.9013e+00 0.0000e+00
1.3964e+01 2.0697e+01 9.5979e+00 1.9260e+00 0.0000e+00
1.4054e+01 2.0634e+01 9.5793e+00 1.9510e+00 0.0000e+00
1.4144e+01 2.0569e+01 9.5585e+00 1.9761e+00 0.0000e+00
1.4234e+01 2.0502e+01 9.5356e+00 2.0013e+00 0.0000e+00
1.4324e+01 2.0433e+01 9.5109e+00 2.0267e+00 0.0000e+00
1.4414e+01 2.0362e+01 9.4843e+00 2.0523e+00 0.0000e+00
1.4505e+01 2.0290e+01 9.4560e+00 2.0780e+00 0.0000e+00
1.4595e+01 2.0216e+01 9.4261e+00 2.1039e+00 0.0000e+00
1.4685e+01 2.0140e+01 9.3946e+00 2.1300e+00 0.0000e+00
1.4775e+01 2.0064e+01 9.3617e+00 2.1562e+00 0.0000e+00
1.4865e+01 1.9986e+01 9.3275e+00 2.1826e+00 0.0000e+00
1.4955e+01 1.9907e+01 9.2920e+00 2.2091e+00 0.0000e+00
1.5045e+01 1.9826e+01 9.2553e+00 2.2358e+00 0.0000e+00
1.5135e+01 1.9745e+01 9.2174e+00 2.2627e+00 0.0000e+00
1.5225e+01 1.9663e+01 9.1786e+00 2.2897e+00 0.0000e+00
1.5315e+01 1.9580e+01 9.1387e+00 2.3168e+00 0.0000e+00
1.5405e+01 1.9497e+01 9.0980e+00 2.3442e+00 0.0000e+00
1.5495e+01 1.9413e+01 9.0564e+00 2.3717e+00 0.0000e+00
1.5586e+01 1.9328e+01 9.0141e+00 2.3993e+00 0.0000e+00
1.5676e+01 1.9242e+01 8.9710e+00 2.4272e+00 0.0000e+00
1.5766e+01 1.9156e+01 8.9273e+00 2.4551e+00 0.0000e+00
1.5856e+01 1.9070e+01 8.8829e+00 2.4833e+00 0.0000e+00
1.5946e+01 1.8983e+01 8.8380e+00 2.5116e+00 0.0000e+00
1.6036e+01 1.8896e+01 8.7926e+00 2.5400e+00 0.0000e+00
1.6126e+01 1.8809e+01 8.7467e+00 2.5686e+00 0.0000e+00
1.6216e+01 1.8721e+01 8.7004e+00 2.5974e+00 0.0000e+00
1.6306e+01 1.8634e+01 8.6537e+00 2.6264e+00 0.0000e+00
1.6396e+01 1.8546e+01 8.6067e+00 2.6555e+00 0.0000e+00
1.6486e+01 1.8458e+01 8.5594e+00 2.6847e+00 0.0000e+00
1.6577e+01 1.8370e+01 8.5118e+00 2.7142e+00 0.0000e+00
1.6667e+01 1.8282e+01 8.4640e+00 2.7437e+00 0.0000e+00
1.6757e+01 1.8194e+01 8.4160e+00 2.7735e+00 0.0000e+00
1.6847e+01 1.8106e+01 8.3678e+00 2.8034e+00 0.0000e+00
1.6937e+01 1.8018e+01 8.3195e+00 2.8334e+00 0.0000e+00
1.7027e+01 1.7930e+01 8.2711e+00 2.8637e+00 0.0000e+00
1.7117e+01 1.7843e+01 8.2226e+00 2.8940e+00 0.0000e+00
1.7207e+01 1.7755e+01 8.1740e+00 2.9246e+00 0.0000e+00
1.7297e+01 1.7668e+01 8.1254e+00 2.9553e+00 0.0000e+00
1.7387e+01 1.7581e+01 8.0768e+00 2.9862e+00 0.0000e+00
1.7477e+01 1.7494e+01 8.0282e+00 3.0172e+00 0.0000e+00
1.7568e+01 1.7407e+01 7.9796e+00 3.0484e+00 0.0000e+00
1.7658e+01 1.7321e+01 7.9311e+00 3.0797e+00 0.0000e+00
1.7748e+01 1.7235e+01 7.8827e+00 3.1112e+00 0.0000e+00
1.7838e+01 1.7149e+01 7.8343e+00 3.1429e+00 0.0000e+00
1.7928e+01 1.7064e+01 7.7860e+00 3.1747e+00 0.0000e+00
1.8018e+01 1.6979e+01 7.7379e+00 3.2067e+00 0.0000e+00
1.8108e+01 1.6894e+01 7.6899e+00 3.2389e+00 0.0000e+00
1.8198e+01 1.6810e+01 7.6420e+00 3.2712e+00 0.0000e+00
1.8288e+01 1.6726e+01 7.5943e+00 3.3036e+00 0.0000e+00
1.8378e+01 1.6642e+01 7.5467e+00 3.3363e+00 0.0000e+00
1.8468e+01 1.6559e+01 7.4993e+00 3.3690e+00 0.0000e+00
1.8559e+01 1.6476e+01 7.4521e+00 3.4020e+00 0.0000e+00
1.8649e+01 1.6394e+01 7.4051e+00 3.4351e+00 0.0000e+00
1.8739e+01 1.6312e+01 7.3584e+00 3.4684e+00 0.0000e+00
1.8829e+01 1.6230e+01 7.3118e+00 3.5018e+00 0.0000e+00
1.8919e+01 1.6149e+01 7.2654e+00 3.5354e+00 0.0000e+00
1.9009e+01 1.6068e+01 7.2193e+00 3.5691e+00 0.0000e+00
1.9099e+01 1.5988e+01 7.1735e+00 3.6031e+00 0.0000e+00
1.9189e+01 1.5908e+01 7.1278e+00 3.6371e+00 0.0000e+00
1.9279e+01 1.5829e+01 7.0824e+00 3.6714e+00 0.0000e+00
1.9369e+01 1.5750e+01 7.0373e+00 3.7057e+00 0.0000e+00
1.9459e+01 1.5672e+01 6.9925e+00 3.7403e+00 0.0000e+00
1.9550e+01 1.5594e+01 6.9479e+00 3.7750e+00 0.0000e+00
1.9640e+01 1.5517e+01 6.9035e+00 3.8099e+00 0.0000e+00
1.9730e+01 1.5440e+01 6.8595e+00 3.8449e+00 0.0000e+00
1.9820e+01 1.5363e+01 6.8157e+00 3.8801e+00 0.0000e+00
1.9910e+01 1.5287e+01 6.7722e+00 3.9155e+00 0.0000e+00
2.0000e+01 1.5212e+01 6.7290e+00 3.9510e+00 0.0000e+00
2.0090e+01 1.5137e+01 6.6860e+00 3.9867e+00 0.0000e+00
2.0180e+01 1.5063e+01 6.6434e+00 4.0225e+00 0.0000e+00
2.0270e+01 1.4989e+01 6.6010e+00 4.0585e+00 0.0000e+00
2.0360e+01 1.4915e+01 6.5590e+00 4.0946e+00 0.0000e+00
2.0450e+01 1.4842e+01 6.5172e+00 4.1310e+00 0.0000e+00
2.0541e+01 1.4770e+01 6.4757e+00 4.1674e+00 0.0000e+00
2.0631e+01 1.4698e+01 6.4345e+00 4.2041e+00 0.0000e+00
2.0721e+01 1.4626e+01 6.3936e+00 4.2409e+00 0.0000e+00
2.0811e+01 1.4555e+01 6.3531e+00 4.2778e+00 0.0000e+00
2.0901e+01 1.4485e+01 6.3128e+00 4.3149e+00 0.0000e+00
2.0991e+01 1.4415e+01 6.2728e+00 4.3522e+00 0.0000e+00
2.1081e+01 1.4345e+01 6.2331e+00 4.3897e+00 0.0000e+00
2.1171e+01 1.4276e+01 6.1937e+00 4.4273e+00 0.0000e+00
2.1261e+01 1.4208e+01 6.1546e+00 4.4650e+00 0.0000e+00
2.1351e+01 1.4139e+01 6.1158e+00 4.5029e+00 0.0000e+00
2.1441e+01 1.4072e+01 6.0773e+00 4.5410e+00 0.0000e+00
2.1532e+01 1.4005e+01 6.0391e+00 4.5793e+00 0.0000e+00
2.1622e+01 1.3938e+01 6.0011e+00 4.6177e+00 0.0000e+00
2.1712e+01 1.3872e+01 5.9635e+00 4.6562e+00 0.0000e+00
2.1802e+01 1.3806e+01 5.9262e+00 4.6949e+00 0.0000e+00
2.1892e+01 1.3741e+01 5.8892e+00 4.7338e+00 0.0000e+00
2.1982e+01 1.3676e+01 5.8524e+00 4.7729e+00 0.0000e+00
2.2072e+01 1.3612e+01 5.8160e+00 4.8121e+00 0.0000e+00
2.2162e+01 1.3548e+01 5.7798e+00 4.8514e+00 0.0000e+00
2.2252e+01 1.3485e+01 5.7440e+00 4.8909e+00 0.0000e+00
2.2342e+01 1.3422e+01 5.7084e+00 4.9306e+00 0.0000e+00
2.2432e+01 1.3360e+01 5.6731e+00 4.9705e+00 0.0000e+00
2.2523e+01 1.3298e+01 5.6381e+00 5.0105e+00 0.0000e+00
2.2613e+01 1.3236e+01 5.6034e+00 5.0506e+00 0.0000e+00
2.2703e+01 1.3175e+01 5.5689e+00 5.0910e+00 0.0000e+00
2.2793e+01 1.3114e+01 5.5348e+00 5.1314e+00 0.0000e+00
2.2883e+01 1.3054e+01 5.5009e+00 5.1721e+00 0.0000e+00
2.2973e+01 1.2995e+01 5.4673e+00 5.2129e+00 0.0000e+00
2.3063e+01 1.2935e+01 5.4339e+00 5.2539e+00 0.0000e+00
2.3153e+01 1.2876e+01 5.4009e+00 5.2950e+00 0.0000e+00
2.3243e+01 1.2818e+01 5.3681e+00 5.3363e+00 0.0000e+00
2.3333e+01 1.2760e+01 5.3356e+00 5.3777e+00 0.0000e+00
2.3423e+01 1.2702e+01 5.3033e+00 5.4193e+00 0.0000e+00
2.3514e+01 1.2645e+01 5.2714e+00 5.4611e+00 0.0000e+00
2.3604e+01 1.2589e+01 5.2396e+00 5.5030e+00 0.0000e+00
2.3694e+01 1.2532e+01 5.2082e+00 5.5451e+00 0.0000e+00
2.3784e+01 1.2476e+01 5.1770e+00 5.5874e+00 0.0000e+00
2.3874e+01 1.2421e+01 5.1460e+00 5.6298e+00 0.0000e+00
2.3964e+01 1.2366e+01 5.1154e+00 5.6723e+00 0.0000e+00
2.4054e+01 1.2311e+01 5.0849e+00 5.7151e+00 0.0000e+00
2.4144e+01 1.2257e+01 5.0548e+00 5.7580e+00 0.0000e+00
2.4234e+01 1.2203e+01 5.0248e+00 5.8010e+00 0.0000e+00
2.4324e+01 1.2150e+01 4.9952e+00 5.8442e+00 0.0000e+00
2.4414e+01 1.2096e+01 4.9657e+00 5.8876e+00 0.0000e+00
2.4505e+01 1.2044e+01 4.9365e+00 5.9311e+00 0.0000e+00
2.4595e+01 1.1991e+01 4.9076e+00 5.9748e+00 0.0000e+00
2.4685e+01 1.1939e+01 4.8789e+00 6.0187e+00 0.0000e+00
2.4775e+01 1.1888e+01 4.8504e+00 6.0627e+00 0.0000e+00
2.4865e+01 1.1837e+01 4.8222e+00 6.1068e+00 0.0000e+00
2.4955e+01 1.1786e+01 4.7942e+00 6.1512e+00 0.0000e+00
2.5045e+01 1.1736e+01 4.7664e+00 6.1957e+00 0.0000e+00
2.5135e+01 1.1685e+01 4.7389e+00 6.2403e+00 0.0000e+00
2.5225e+01 1.1636e+01 4.7116e+00 6.2851e+00 0.0000e+00
2.5315e+01 1.1586e+01 4.6845e+00 6.3301e+00 0.0000e+00
2.5405e+01 1.1537e+01 4.6577e+00 6.3752e+00 0.0000e+00
2.5495e+01 1.1489e+01 4.6310e+00 6.4205e+00 0.0000e+00
2.5586e+01 1.1441e+01 4.6046e+00 6.4660e+00 0.0000e+00
2.5676e+01 1.1393e+01 4.5784e+00 6.5116e+00 0.0000e+00
2.5766e+01 1.1345e+01 4.5524e+00 6.5574e+00 0.0000e+00
2.5856e+01 1.1298e+01 4.5267e+00 6.6033e+00 0.0000e+00
2.5946e+01 1.1251e+01 4.5011e+00 6.6494e+00 0.0000e+00
2.6036e+01 1.1204e+01 4.4758e+00 6.6957e+00 0.0000e+00
2.6126e+01 1.1158e+01 4.4507e+00 6.7421e+00 0.0000e+00
2.6216e+01 1.1112e+01 4.4257e+00 6.7887e+00 0.0000e+00
2.6306e+01 1.1067e+01 4.4010e+00 6.8354e+00 0.0000e+00
2.6396e+01 1.1021e+01 4.3765e+00 6.8823e+00 0.0000e+00
2.6486e+01 1.0976e+01 4.3522e+00 6.9294e+00 0.0000e+00
2.6577e+01 1.0932e+01 4.3280e+00 6.9766e+00 0.0000e+00
2.6667e+01 1.0887e+01 4.3041e+00 7.0240e+00 0.0000e+00
2.6757e+01 1.0843e+01 4.2804e+00 7.0715e+00 0.0000e+00
2.6847e+01 1.0800e+01 4.2569e+00 7.1192e+00 0.0000e+00
2.6937e+01 1.0756e+01 4.2335e+00 7.1671e+00 0.0000e+00
2.7027e+01 1.0713e+01 4.2104e+00 7.2151e+00 0.0000e+00
2.7117e+01 1.0671e+01 4.1874e+00 7.2633e+00 0.0000e+00
2.7207e+01 1.0628e+01 4.1646e+00 7.3116e+00 0.0000e+00
2.7297e+01 1.0586e+01 4.1420e+00 7.3601e+00 0.0000e+00
2.7387e+01 1.0544e+01 4.1196e+00 7.4088e+00 0.0000e+00
2.7477e+01 1.0503e+01 4.0974e+00 7.4576e+00 0.0000e+00
2.7568e+01 1.0461e+01 4.0753e+00 7.5066e+00 0.0000e+00
2.7658e+01 1.0420e+01 4.0534e+00 7.5557e+00 0.0000e+00
2.7748e+01 1.0380e+01 4.0317e+00 7.6050e+00 0.0000e+00
2.7838e+01 1.0339e+01 4.0102e+00 7.6545e+00 0.0000e+00
2.7928e+01 1.0299e+01 3.9889e+00 7.7041e+00 0.0000e+00
2.8018e+01 1.0259e+01 3.9677e+00 7.7539e+00 0.0000e+00
2.8108e+01 1.0220e+01 3.9467e+00 7.8038e+00 0.0000e+00
2.8198e+01 1.0180e+01 3.9258e+00 7.8539e+00 0.0000e+00
2.8288e+01 1.0141e+01 3.9051e+00 7.9042e+00 0.0000e+00
2.8378e+01 1.0102e+01 3.8846e+00 7.9546e+00 0.0000e+00
2.8468e+01 1.0064e+01 3.8643e+00 8.0052e+00 0.0000e+00
2.8559e+01 1.0026e+01 3.8441e+00 8.0560e+00 0.0000e+00
2.8649e+01 9.9876e+00 3.8240e+00 8.1069e+00 0.0000e+00
2.8739e+01 9.9498e+00 3.8042e+00 8.1579e+00 0.0000e+00
2.8829e+01 9.9123e+00 3.7844e+00 8.2092e+00 0.0000e+00
2.8919e+01 9.8751e+00 3.7649e+00 8.2605e+00 0.0000e+00
2.9009e+01 9.8381e+00 3.7455e+00 8.3121e+00 0.0000e+00
2.9099e+01 9.8014e+00 3.7262e+00 8.3638e+00 0.0000e+00
2.9189e+01 9.7649e+00 3.7071e+00 8.4157e+00 0.0000e+00
2.9279e+01 9.7286e+00 3.6881e+00 8.4677e+00 0.0000e+00
2.9369e+01 9.6926e+00 3.6693e+00 8.5199e+00 0.0000e+00
2.9459e+01 9.6568e+00 3.6506e+00 8.5722e+00 0.0000e+00
2.9550e+01 9.6213e+00 3.6321e+00 8.6247e+00 0.0000e+00
2.9640e+01 9.5860e+00 3.6137e+00 8.6774e+00 0.0000e+00
2.9730e+01 9.5509e+00 3.5955e+00 8.7303e+00 0.0000e+00
2.9820e+01 9.5161e+00 3.5774e+00 8.7832e+00 0.0000e+00
2.9910e+01 9.4815e+00 3.5594e+00 8.8364e+00 0.0000e+00
3.0000e+01 9.4471e+00 3.5416e+00 8.8897e+00 0.0000e+00
3.0090e+01 9.4130e+00 3.5239e+00 8.9432e+00 0.0000e+00
3.0180e+01 9.3791e+00 3.5064e+00 8.9968e+00 0.0000e+00
3.0270e+01 9.3453e+00 3.4890e+00 9.0506e+00 0.0000e+00
3.0360e+01 9.3119e+00 3.4717e+00 9.1046e+00 0.0000e+00
3.0450e+01 9.2786e+00 3.4545e+00 9.1587e+00 0.0000e+00
3.0541e+01 9.2455e+00 3.4375e+00 9.2129e+00 0.0000e+00
3.0631e+01 9.2127e+00 3.4206e+00 9.2674e+00 0.0000e+00
3.0721e+01 9.1801e+00 3.4039e+00 9.3220e+00 0.0000e+00
3.0811e+01 9.1477e+00 3.3872e+00 9.3767e+00 0.0000e+00
3.0901e+01 9.1154e+00 3.3707e+00 9.4316e+00 0.0000e+00
3.0991e+01 9.0834e+00 3.3543e+00 9.4867e+00 0.0000e+00
3.1081e+01 9.0516e+00 3.3381e+00 9.5419e+00 0.0000e+00
3.1171e+01 9.0200e+00 3.3219e+00 9.5973e+00 0.0000e+00
3.1261e+01 8.9886e+00 3.3059e+00 9.6529e+00 0.0000e+00
3.1351e+01 8.9575e+00 3.2900e+00 9.7086e+00 0.0000e+00
3.1441e+01 8.9265e+00 3.2742e+00 9.7645e+00 0.0000e+00
3.1532e+01 8.8956e+00 3.2585e+00 9.8205e+00 0.0000e+00
3.1622e+01 8.8650e+00 3.2430e+00 9.8767e+00 0.0000e+00
3.1712e+01 8.8346e+00 3.2275e+00 9.9331e+00 0.0000e+00
3.1802e+01 8.8044e+00 3.2122e+00 9.9896e+00 0.0000e+00
3.1892e+01 8.7744e+00 3.1970e+00 1.0046e+01 0.0000e+00
3.1982e+01 8.7445e+00 3.1819e+00 1.0103e+01 0.0000e+00
3.2072e+01 8.7148e+00 3.1669e+00 1.0160e+01 0.0000e+00
3.2162e+01 8.6854e+00 3.1520e+00 1.0217e+01 0.0000e+00
3.2252e+01 8.6561e+00 3.1372e+00 1.0275e+01 0.0000e+00
3.2342e+01 8.6270e+00 3.1226e+00 1.0332e+01 1.1479e-15
3.2432e+01 8.5980e+00 3.1080e+00 1.0390e+01 3.4438e-15
3.2523e+01 8.5693e+00 3.0936e+00 1.0448e+01 1.3775e-14
3.2613e+01 8.5407e+00 3.0792e+00 1.0505e+01 5.6249e-14
3.2703e+01 8.5123e+00 3.0650e+00 1.0564e+01 2.1926e-13
3.2793e+01 8.4840e+00 3.0508e+00 1.0622e+01 8.0815e-13
3.2883e+01 8.4560e+00 3.0368e+00 1.0680e+01 2.8010e-12
3.2973e+01 8.4281e+00 3.0228e+00 1.0739e+01 9.2168e-12
3.3063e+01 8.4004e+00 3.0090e+00 1.0798e+01 2.8832e-11
3.3153e+01 8.3728e+00 2.9953e+00 1.0857e+01 8.5925e-11
3.3243e+01 8.3454e+00 2.9816e+00 1.0916e+01 2.4446e-10
3.3333e+01 8.3182e+00 2.9681e+00 1.0975e+01 6.6531e-10
3.3423e+01 8.2911e+00 2.9546e+00 1.1034e+01 1.7354e-09
3.3514e+01 8.2643e+00 2.9413e+00 1.1094e+01 4.3464e-09
3.3604e+01 8.2375e+00 2.9280e+00 1.1154e+01 1.0471e-08
3.3694e+01 8.2109e+00 2.9148e+00 1.1214e+01 2.4307e-08
3.3784e+01 8.1845e+00 2.9017e+00 1.1274e+01 5.4453e-08
3.3874e+01 8.1583e+00 2.8888e+00 1.1334e+01 1.1791e-07
3.3964e+01 8.1322e+00 2.8759e+00 1.1394e+01 2.4713e-07
3.4054e+01 8.1062e+00 2.8631e+00 1.1455e+01 5.0210e-07
3.4144e+01 8.0804e+00 2.8503e+00 1.1515e+01 9.9019e-07
3.4234e+01 8.0548e+00 2.8377e+00 1.1576e+01 1.8979e-06
3.4324e+01 8.0293e+00 2.8252e+00 1.1637e+01 3.5397e-06
3.4414e+01 8.0039e+00 2.8127e+00 1.1698e+01 6.4318e-06
3.4505e+01 7.9787e+00 2.8004e+00 1.1760e+01 1.1399e-05
3.4595e+01 7.9537e+00 2.7881e+00 1.1821e+01 1.9723e-05
3.4685e+01 7.9288e+00 2.7759e+00 1.1883e+01 3.3357e-05
3.4775e+01 7.9040e+00 2.7638e+00 1.1945e+01 5.5191e-05
3.4865e+01 7.8794e+00 2.7517e+00 1.2007e+01 8.9425e-05
3.4955e+01 7.8549e+00 2.7398e+00 1.2069e+01 1.4201e-04
3.5045e+01 7.8306e+00 2.7279e+00 1.2131e+01 2.2124e-04
3.5135e+01 7.8064e+00 2.7161e+00 1.2193e+01 3.3839e-04
3.5225e+01 7.7823e+00 2.7044e+00 1.2256e+01 5.0854e-04
3.5315e+01 7.7584e+00 2.6928e+00 1.2318e+01 7.5148e-04
3.5405e+01 7.7346e+00 2.6813e+00 1.2381e+01 1.0927e-03
3.5495e+01 7.7110e+00 2.6698e+00 1.2443e+01 1.5645e-03
3.5586e+01 7.6875e+00 2.6584e+00 1.2506e+01 2.2072e-03
3.5676e+01 7.6641e+00 2.6471e+00 1.2568e+01 3.0702e-03
3.5766e+01 7.6409e+00 2.6358e+00 1.2631e+01 4.2130e-03
3.5856e+01 7.6177e+00 2.6247e+00 1.2693e+01 5.7067e-03
3.5946e+01 7.5948e+00 2.6136e+00 1.2755e+01 7.6345e-03
3.6036e+01 7.5719e+00 2.6026e+00 1.2817e+01 1.0093e-02
3.6126e+01 7.5492e+00 2.5916e+00 1.2878e+01 1.3191e-02
3.6216e+01 7.5266e+00 2.5807e+00 1.2938e+01 1.7054e-02
3.6306e+01 7.5041e+00 2.5699e+00 1.2998e+01 2.1818e-02
3.6396e+01 7.4817e+00 2.5592e+00 1.3057e+01 2.7635e-02
3.6486e+01 7.4595e+00 2.5486e+00 1.3115e+01 3.4669e-02
3.6577e+01 7.4374e+00 2.5380e+00 1.3171e+01 4.3096e-02
3.6667e+01 7.4154e+00 2.5274e+00 1.3227e+01 5.3102e-02
3.6757e+01 7.3936e+00 2.5170e+00 1.3280e+01 6.4881e-02
3.6847e+01 7.3718e+00 2.5066e+00 1.3332e+01 7.8636e-02
3.6937e+01 7.3502e+00 2.4963e+00 1.3382e+01 9.4573e-02
3.7027e+01 7.3287e+00 2.4861e+00 1.3429e+01 1.1290e-01
3.7117e+01 7.3073e+00 2.4759e+00 1.3474e+01 1.3382e-01
3.7207e+01 7.2861e+00 2.4658e+00 1.3517e+01 1.5755e-01
3.7297e+01 7.2649e+00 2.4557e+00 1.3556e+01 1.8428e-01
3.7387e+01 7.2439e+00 2.4457e+00 1.3593e+01 2.1420e-01
3.7477e+01 7.2229e+00 2.4358e+00 1.3626e+01 2.4749e-01
3.7568e+01 7.2021e+00 2.4259e+00 1.3656e+01 2.8432e-01
3.7658e+01 7.1814e+00 2.4162e+00 1.3682e+01 3.2485e-01
3.7748e+01 7.1609e+00 2.4064e+00 1.3705e+01 3.6920e-01
3.7838e+01 7.1404e+00 2.3968e+00 1.3724e+01 4.1749e-01
3.7928e+01 7.1200e+00 2.3871e+00 1.3739e+01 4.6982e-01
3.8018e+01 7.0997e+00 2.3776e+00 1.3750e+01 5.2626e-01
3.8108e+01 7.0796e+00 2.3681e+00 1.3757e+01 5.8687e-01
3.8198e+01 7.0596e+00 2.3587e+00 1.3761e+01 6.5167e-01
3.8288e+01 7.0396e+00 2.3493e+00 1.3760e+01 7.2069e-01
3.8378e+01 7.0198e+00 2.3400e+00 1.3755e+01 7.9389e-01
3.8468e+01 7.0001e+00 2.3308e+00 1.3746e+01 8.7126e-01
3.8559e+01 6.9804e+00 2.3216e+00 1.3733e+01 9.5274e-01
3.8649e+01 6.9609e+00 2.3124e+00 1.3716e+01 1.0382e+00
3.8739e+01 6.9415e+00 2.3034e+00 1.3695e+01 1.1277e+00
3.8829e+01 6.9222e+00 2.2943e+00 1.3671e+01 1.2210e+00
3.8919e+01 6.9030e+00 2.2854e+00 1.3643e+01 1.3179e+00
3.9009e+01 6.8838e+00 2.2765e+00 1.3612e+01 1.4185e+00
3.9099e+01 6.8648e+00 2.2676e+00 1.3578e+01 1.5224e+00
3.9189e+01 6.8459e+00 2.2588e+00 1.3540e+01 1.6296e+00
3.9279e+01 6.8271e+00 2.2501e+00 1.3500e+01 1.7398e+00
3.9369e+01 6.8084e+00 2.2414e+00 1.3457e+01 1.8530e+00
3.9459e+01 6.7897e+00 2.2327e+00 1.3411e+01 1.9688e+00
3.9550e+01 6.7712e+00 2.2241e+00 1.3363e+01 2.0871e+00
3.9640e+01 6.7528e+00 2.2156e+00 1.3313e+01 2.2078e+00
3.9730e+01 6.7344e+00 2.2071e+00 1.3261e+01 2.3305e+00
3.9820e+01 6.7162e+00 2.1987e+00 1.3207e+01 2.4551e+00
3.9910e+01 6.6980e+00 2.1903e+00 1.3151e+01 2.5814e+00
4.0000e+01 6.6800e+00 2.1820e+00 1.3094e+01 2.7092e+00
4.0090e+01 6.6620e+00 2.1737e+00 1.3036e+01 2.8383e+00
4.0180e+01 6.6441e+00 2.1655e+00 1.2977e+01 2.9685e+00
4.0270e+01 6.6263e+00 2.1573e+00 1.2918e+01 3.0996e+00
4.0360e+01 6.6086e+00 2.1492e+00 1.2857e+01 3.2313e+00
4.0450e+01 6.5910e+00 2.1411e+00 1.2796e+01 3.3635e+00
4.0541e+01 6.5735e+00 2.1331e+00 1.2735e+01 3.4960e+00
4.0631e+01 6.5561e+00 2.1251e+00 1.2673e+01 3.6286e+00
4.0721e+01 6.5387e+00 2.1172e+00 1.2611e+01 3.7610e+00
4.0811e+01 6.5214e+00 2.1093e+00 1.2549e+01 3.8930e+00
4.0901e+01 6.5043e+00 2.1014e+00 1.2487e+01 4.0246e+00
4.0991e+01 6.4872e+00 2.0936e+00 1.2426e+01 4.1553e+00
4.1081e+01 6.4702e+00 2.0859e+00 1.2364e+01 4.2850e+00
4.1171e+01 6.4533e+00 2.0782e+00 1.2302e+01 4.4135e+00
4.1261e+01 6.4364e+00 2.0705e+00 1.2240e+01 4.5405e+00
4.1351e+01 6.4197e+00 2.0629e+00 1.2179e+01 4.6658e+00
4.1441e+01 6.4030e+00 2.0553e+00 1.2117e+01 4.7891e+00
4.1532e+01 6.3864e+00 2.0478e+00 1.2055e+01 4.9101e+00
4.1622e+01 6.3699e+00 2.0403e+00 1.1992e+01 5.0286e+00
4.1712e+01 6.3535e+00 2.0329e+00 1.1930e+01 5.1443e+00
4.1802e+01 6.3371e+00 2.0255e+00 1.1866e+01 5.2569e+00
4.1892e+01 6.3208e+00 2.0182e+00 1.1802e+01 5.3661e+00
4.1982e+01 6.3046e+00 2.0108e+00 1.1737e+01 5.4717e+00
4.2072e+01 6.2885e+00 2.0036e+00 1.1671e+01 5.5734e+00
4.2162e+01 6.2725e+00 1.9964e+00 1.1604e+01 5.6708e+00
4.2252e+01 6.2565e+00 1.9892e+00 1.1535e+01 5.7637e+00
4.2342e+01 6.2406e+00 1.9820e+00 1.1464e+01 5.8518e+00
4.2432e+01 6.2248e+00 1.9749e+00 1.1391e+01 5.9349e+00
4.2523e+01 6.2091e+00 1.9679e+00 1.1316e+01 6.0127e+00
4.2613e+01 6.1935e+00 1.9609e+00 1.1239e+01 6.0850e+00
